# RunNo. E_0 Total Energy (all MeV)  Detector 0  Detector 1  Detector 2  Detector 3  Detector 4  Detector 5 
0 0.01 0 0 0 0 0 0 0 
1 0.02 0.193065 0.193065 0 0 0 0 0 
2 0.03 0.638706 0.552028 0.064027 0.0226506 0 0 0 
3 0.04 1.0341 0.870162 0.162218 0.00171649 0 0 0 
4 0.05 1.59682 1.29189 0.21093 0.0939987 0 0 0 
5 0.06 2.11452 1.5255 0.421863 0.16716 0 0 0 
6 0.07 2.81547 2.07035 0.435655 0.309466 0 0 0 
7 0.08 4.57288 3.27633 0.654632 0.641914 0 0 0 
8 0.09 5.02447 3.68859 0.794178 0.541704 0 0 0 
9 0.1 5.90113 3.88278 1.3908 0.627549 0 0 0 
10 0.1 6.84139 4.61553 1.3457 0.880164 0 0 0 
11 0.2 27824.7 27816.4 4.81093 3.50933 0.0388074 0 0 
12 0.3 633439 633420 9.68353 8.21134 0.572311 0 0 
13 0.4 1.16978e+06 1.16976e+06 12.5881 10.8329 1.94248 0.691395 0 
14 0.5 1.29226e+06 1.29221e+06 27.2037 18.9257 4.04987 0.428991 0 
15 0.6 1.28195e+06 1.26505e+06 16863.6 29.0469 6.24961 0.796378 0 
16 0.7 1.37307e+06 1.18802e+06 185002 42.5618 11.3426 2.2624 0.215367 
17 0.8 1.56051e+06 1.10114e+06 459290 58.5728 14.4169 4.77277 0.298247 
18 0.9 1.71735e+06 1.02187e+06 695371 69.3662 23.8415 8.22643 1.06851 
19 1 1.81477e+06 951791 862839 90.0806 34.8446 12.5702 1.64416 
